# CMS arXiv:1503.04114, Fig. 5a
# expected 95% exclusion limits on sigBR(pp->H->hh->bbbb)
# mH[GeV] | sig*BR_95% [pb]
270.0	6.905
275.0	4.140
280.0	3.249
285.0	2.859
290.0	2.567
295.0	2.399
300.0	2.213
305.0	1.981
310.0	1.749
315.0	1.556
320.0	1.363
325.0	1.199
330.0	1.034
335.0	0.9043
340.0	0.7743
345.0	0.6829
350.0	0.5915
355.0	0.5294
360.0	0.4673
365.0	0.4195
370.0	0.3717
375.0	0.3377
380.0	0.3037
385.0	0.2776
390.0	0.2515
395.0	0.2306
400.0	0.2097
405.0	0.1941
410.0	0.1784
415.0	0.1651
420.0	0.1518
425.0	0.1409
430.0	0.1300
435.0	0.1203
440.0	0.1106
445.0	0.1040
450.0	0.09734
455.0	0.08953
460.0	0.08171
465.0	0.07879
470.0	0.07588
475.0	0.07341
480.0	0.07094
485.0	0.06885
490.0	0.06677
495.0	0.06438
500.0	0.06200
505.0	0.05998
510.0	0.05796
515.0	0.05608
520.0	0.05419
525.0	0.05277
530.0	0.05135
535.0	0.04984
540.0	0.04833
545.0	0.04630
550.0	0.04428
555.0	0.04284
560.0	0.04140
565.0	0.04005
570.0	0.03870
575.0	0.03769
580.0	0.03667
585.0	0.03571
590.0	0.03475
595.0	0.03373
600.0	0.03271
605.0	0.03174
610.0	0.03078
615.0	0.02978
620.0	0.02878
625.0	0.02784
630.0	0.02690
635.0	0.02637
640.0	0.02584
645.0	0.02533
650.0	0.02482
655.0	0.02433
660.0	0.02383
665.0	0.02336
670.0	0.02289
675.0	0.02244
680.0	0.02198
685.0	0.02148
690.0	0.02097
695.0	0.02049
700.0	0.02001
705.0	0.01974
710.0	0.01947
715.0	0.01922
720.0	0.01896
725.0	0.01852
730.0	0.01808
735.0	0.01738
740.0	0.01668
745.0	0.01624
750.0	0.01581
755.0	0.01549
760.0	0.01518
765.0	0.01483
770.0	0.01448
775.0	0.01424
780.0	0.01400
785.0	0.01359
790.0	0.01318
795.0	0.01275
800.0	0.01232
805.0	0.01216
810.0	0.01199
815.0	0.01195
820.0	0.01191
825.0	0.01187
830.0	0.01183
835.0	0.01164
840.0	0.01144
845.0	0.01107
850.0	0.01070
855.0	0.01062
860.0	0.01055
865.0	0.01062
870.0	0.01070
875.0	0.01066
880.0	0.01062
885.0	0.01052
890.0	0.01041
895.0	0.01011
900.0	0.009800
905.0	0.009767
910.0	0.009734
915.0	0.009901
920.0	0.01007
925.0	0.01020
930.0	0.01034
935.0	0.01034
940.0	0.01034
945.0	0.01031
950.0	0.01027
955.0	0.01034
960.0	0.01041
965.0	0.01063
970.0	0.01084
975.0	0.01099
980.0	0.01114
985.0	0.01121
990.0	0.01129
995.0	0.01125
1000.0	0.01121
1005.0	0.01133
1010.0	0.01144
1015.0	0.01176
1020.0	0.01207
1025.0	0.01232
1030.0	0.01257
1035.0	0.01279
1040.0	0.01300
1045.0	0.01323
1050.0	0.01345
1055.0	0.01377
1060.0	0.01410
1065.0	0.01449
1070.0	0.01488
1075.0	0.01534
1080.0	0.01581
1085.0	0.01619
1090.0	0.01657
1095.0	0.01697
1100.0	0.01737
