# CMS arXiv:1510.01181, Fig. 10a
# expected 95% exclusion limits on sigBR(gg->A->hZ->tautaull)
# mA[GeV] | sig*BR_95% [pb]
220.0	0.01029
230.0	0.01052
240.0	0.01071
250.0	0.01021
260.0	0.009714
270.0	0.009214
280.0	0.008595
290.0	0.008143
300.0	0.007833
310.0	0.007286
320.0	0.006976
330.0	0.006905
340.0	0.006452
350.0	0.006024
