# CMS arXiv:1710.04960, Fig. 9 left
# expected 95% exclusion limits on sigBR(gg->X->hh->bbbb)
# mX[GeV] | sig*BR_95% [pb]
750.0	9.00E-02
760.0	8.47E-02
770.0	7.67E-02
780.0	6.88E-02
790.0	6.08E-02
800.0	5.54E-02
810.0	5.15E-02
820.0	4.76E-02
830.0	4.37E-02
840.0	4.12E-02
850.0	3.94E-02
860.0	3.76E-02
870.0	3.59E-02
880.0	3.43E-02
890.0	3.29E-02
900.0	3.15E-02
910.0	3.01E-02
920.0	2.88E-02
930.0	2.77E-02
940.0	2.66E-02
950.0	2.56E-02
960.0	2.45E-02
970.0	2.37E-02
980.0	2.28E-02
990.0	2.20E-02
1000.0	2.12E-02
1010.0	2.04E-02
1020.0	1.97E-02
1030.0	1.90E-02
1040.0	1.83E-02
1050.0	1.76E-02
1060.0	1.70E-02
1070.0	1.64E-02
1080.0	1.59E-02
1090.0	1.54E-02
1100.0	1.49E-02
1110.0	1.44E-02
1120.0	1.39E-02
1130.0	1.35E-02
1140.0	1.30E-02
1150.0	1.26E-02
1160.0	1.22E-02
1170.0	1.17E-02
1180.0	1.13E-02
1190.0	1.09E-02
1200.0	1.05E-02
1210.0	1.02E-02
1220.0	9.90E-03
1230.0	9.59E-03
1240.0	9.28E-03
1250.0	9.04E-03
1260.0	8.79E-03
1270.0	8.55E-03
1280.0	8.28E-03
1290.0	8.02E-03
1300.0	7.81E-03
1310.0	7.63E-03
1320.0	7.44E-03
1330.0	7.25E-03
1340.0	7.09E-03
1350.0	6.95E-03
1360.0	6.80E-03
1370.0	6.66E-03
1380.0	6.52E-03
1390.0	6.38E-03
1400.0	6.27E-03
1410.0	6.17E-03
1420.0	6.06E-03
1430.0	5.96E-03
1440.0	5.86E-03
1450.0	5.76E-03
1460.0	5.66E-03
1470.0	5.56E-03
1480.0	5.45E-03
1490.0	5.35E-03
1500.0	5.27E-03
1510.0	5.19E-03
1520.0	5.12E-03
1530.0	5.04E-03
1540.0	4.97E-03
1550.0	4.89E-03
1560.0	4.82E-03
1570.0	4.75E-03
1580.0	4.70E-03
1590.0	4.64E-03
1600.0	4.60E-03
1610.0	4.55E-03
1620.0	4.51E-03
1630.0	4.47E-03
1640.0	4.42E-03
1650.0	4.37E-03
1660.0	4.31E-03
1670.0	4.25E-03
1680.0	4.20E-03
1690.0	4.14E-03
1700.0	4.12E-03
1710.0	4.11E-03
1720.0	4.08E-03
1730.0	4.02E-03
1740.0	3.96E-03
1750.0	3.91E-03
1760.0	3.85E-03
1770.0	3.80E-03
1780.0	3.75E-03
1790.0	3.70E-03
1800.0	3.65E-03
1810.0	3.61E-03
1820.0	3.57E-03
1830.0	3.53E-03
1840.0	3.47E-03
1850.0	3.41E-03
1860.0	3.36E-03
1870.0	3.31E-03
1880.0	3.27E-03
1890.0	3.22E-03
1900.0	3.18E-03
1910.0	3.14E-03
1920.0	3.10E-03
1930.0	3.06E-03
1940.0	3.02E-03
1950.0	2.99E-03
1960.0	2.95E-03
1970.0	2.92E-03
1980.0	2.88E-03
1990.0	2.85E-03
2000.0	2.82E-03
2010.0	2.79E-03
2020.0	2.76E-03
2030.0	2.74E-03
2040.0	2.71E-03
2050.0	2.68E-03
2060.0	2.66E-03
2070.0	2.64E-03
2080.0	2.61E-03
2090.0	2.59E-03
2100.0	2.56E-03
2110.0	2.54E-03
2120.0	2.52E-03
2130.0	2.50E-03
2140.0	2.48E-03
2150.0	2.45E-03
2160.0	2.43E-03
2170.0	2.41E-03
2180.0	2.39E-03
2190.0	2.37E-03
2200.0	2.34E-03
2210.0	2.33E-03
2220.0	2.31E-03
2230.0	2.29E-03
2240.0	2.27E-03
2250.0	2.26E-03
2260.0	2.24E-03
2270.0	2.23E-03
2280.0	2.21E-03
2290.0	2.20E-03
2300.0	2.19E-03
2310.0	2.17E-03
2320.0	2.16E-03
2330.0	2.14E-03
2340.0	2.13E-03
2350.0	2.12E-03
2360.0	2.09E-03
2370.0	2.06E-03
2380.0	2.04E-03
2390.0	2.03E-03
2400.0	2.03E-03
2410.0	2.01E-03
2420.0	2.00E-03
2430.0	1.98E-03
2440.0	1.97E-03
2450.0	1.95E-03
2460.0	1.94E-03
2470.0	1.93E-03
2480.0	1.91E-03
2490.0	1.90E-03
2500.0	1.89E-03
2510.0	1.87E-03
2520.0	1.85E-03
2530.0	1.82E-03
2540.0	1.80E-03
2550.0	1.78E-03
2560.0	1.75E-03
2570.0	1.73E-03
2580.0	1.70E-03
2590.0	1.68E-03
2600.0	1.67E-03
2610.0	1.66E-03
2620.0	1.64E-03
2630.0	1.62E-03
2640.0	1.60E-03
2650.0	1.58E-03
2660.0	1.56E-03
2670.0	1.54E-03
2680.0	1.52E-03
2690.0	1.49E-03
2700.0	1.47E-03
2710.0	1.45E-03
2720.0	1.44E-03
2730.0	1.42E-03
2740.0	1.40E-03
2750.0	1.39E-03
2760.0	1.40E-03
2770.0	1.42E-03
2780.0	1.44E-03
2790.0	1.46E-03
2800.0	1.48E-03
2810.0	1.50E-03
2820.0	1.52E-03
2830.0	1.55E-03
2840.0	1.57E-03
2850.0	1.59E-03
2860.0	1.62E-03
2870.0	1.64E-03
2880.0	1.67E-03
2890.0	1.70E-03
2900.0	1.72E-03
2910.0	1.75E-03
2920.0	1.78E-03
2930.0	1.81E-03
2940.0	1.84E-03
2950.0	1.87E-03
2960.0	1.90E-03
2970.0	1.93E-03
2980.0	1.96E-03
2990.0	1.99E-03
3000.0	2.02E-03
