# CMS arXiv:1808.01365, Fig. 5 left
# observed 95% exclusion limits on sigBR(pp->H->hh->bbtautau)
# mH[GeV] | sig*BR_95% [pb]
900.0	8.11E-02
910.0	7.64E-02
920.0	7.17E-02
930.0	6.69E-02
940.0	6.22E-02
950.0	5.89E-02
960.0	5.55E-02
970.0	5.22E-02
980.0	4.88E-02
990.0	4.60E-02
1000.0	4.31E-02
1010.0	4.03E-02
1020.0	3.75E-02
1030.0	3.61E-02
1040.0	3.48E-02
1050.0	3.35E-02
1060.0	3.22E-02
1070.0	3.09E-02
1080.0	2.98E-02
1090.0	2.87E-02
1100.0	2.77E-02
1110.0	2.67E-02
1120.0	2.62E-02
1130.0	2.57E-02
1140.0	2.52E-02
1150.0	2.47E-02
1160.0	2.42E-02
1170.0	2.40E-02
1180.0	2.37E-02
1190.0	2.34E-02
1200.0	2.31E-02
1210.0	2.30E-02
1220.0	2.29E-02
1230.0	2.28E-02
1240.0	2.28E-02
1250.0	2.27E-02
1260.0	2.26E-02
1270.0	2.25E-02
1280.0	2.24E-02
1290.0	2.23E-02
1300.0	2.23E-02
1310.0	2.22E-02
1320.0	2.21E-02
1330.0	2.20E-02
1340.0	2.19E-02
1350.0	2.17E-02
1360.0	2.16E-02
1370.0	2.14E-02
1380.0	2.13E-02
1390.0	2.11E-02
1400.0	2.10E-02
1410.0	2.05E-02
1420.0	2.01E-02
1430.0	1.96E-02
1440.0	1.92E-02
1450.0	1.87E-02
1460.0	1.83E-02
1470.0	1.79E-02
1480.0	1.74E-02
1490.0	1.70E-02
1500.0	1.65E-02
1510.0	1.61E-02
1520.0	1.55E-02
1530.0	1.49E-02
1540.0	1.43E-02
1550.0	1.38E-02
1560.0	1.34E-02
1570.0	1.30E-02
1580.0	1.26E-02
1590.0	1.23E-02
1600.0	1.20E-02
1610.0	1.18E-02
1620.0	1.17E-02
1630.0	1.15E-02
1640.0	1.13E-02
1650.0	1.11E-02
1660.0	1.09E-02
1670.0	1.07E-02
1680.0	1.05E-02
1690.0	1.04E-02
1700.0	1.02E-02
1710.0	1.02E-02
1720.0	1.02E-02
1730.0	1.02E-02
1740.0	1.02E-02
1750.0	1.02E-02
1760.0	1.02E-02
1770.0	1.02E-02
1780.0	1.02E-02
1790.0	1.02E-02
1800.0	1.02E-02
1810.0	1.04E-02
1820.0	1.06E-02
1830.0	1.08E-02
1840.0	1.10E-02
1850.0	1.12E-02
1860.0	1.14E-02
1870.0	1.16E-02
1880.0	1.18E-02
1890.0	1.20E-02
1900.0	1.22E-02
1910.0	1.25E-02
1920.0	1.27E-02
1930.0	1.29E-02
1940.0	1.33E-02
1950.0	1.36E-02
1960.0	1.39E-02
1970.0	1.42E-02
1980.0	1.44E-02
1990.0	1.47E-02
2000.0	1.50E-02
2010.0	1.49E-02
2020.0	1.48E-02
2030.0	1.47E-02
2040.0	1.47E-02
2050.0	1.46E-02
2060.0	1.45E-02
2070.0	1.44E-02
2080.0	1.43E-02
2090.0	1.43E-02
2100.0	1.40E-02
2110.0	1.38E-02
2120.0	1.35E-02
2130.0	1.33E-02
2140.0	1.31E-02
2150.0	1.29E-02
2160.0	1.27E-02
2170.0	1.25E-02
2180.0	1.23E-02
2190.0	1.21E-02
2200.0	1.19E-02
2210.0	1.18E-02
2220.0	1.15E-02
2230.0	1.12E-02
2240.0	1.09E-02
2250.0	1.07E-02
2260.0	1.04E-02
2270.0	1.02E-02
2280.0	9.94E-03
2290.0	9.69E-03
2300.0	9.45E-03
2310.0	9.16E-03
2320.0	8.87E-03
2330.0	8.58E-03
2340.0	8.39E-03
2350.0	8.19E-03
2360.0	8.00E-03
2370.0	7.80E-03
2380.0	7.61E-03
2390.0	7.37E-03
2400.0	7.14E-03
2410.0	6.90E-03
2420.0	6.79E-03
2430.0	6.69E-03
2440.0	6.58E-03
2450.0	6.48E-03
2460.0	6.37E-03
2470.0	6.27E-03
2480.0	6.17E-03
2490.0	6.07E-03
2500.0	5.97E-03
2510.0	5.94E-03
2520.0	5.91E-03
2530.0	5.89E-03
2540.0	5.86E-03
2550.0	5.83E-03
2560.0	5.83E-03
2570.0	5.83E-03
2580.0	5.83E-03
2590.0	5.83E-03
2600.0	5.83E-03
2610.0	5.86E-03
2620.0	5.89E-03
2630.0	5.93E-03
2640.0	5.96E-03
2650.0	5.99E-03
2660.0	6.02E-03
2670.0	6.06E-03
2680.0	6.09E-03
2690.0	6.12E-03
2700.0	6.22E-03
2710.0	6.32E-03
2720.0	6.42E-03
2730.0	6.47E-03
2740.0	6.53E-03
2750.0	6.58E-03
2760.0	6.63E-03
2770.0	6.69E-03
2780.0	6.74E-03
2790.0	6.79E-03
2800.0	6.85E-03
2810.0	6.90E-03
2820.0	6.92E-03
2830.0	6.94E-03
2840.0	6.96E-03
2850.0	6.98E-03
2860.0	6.99E-03
2870.0	7.01E-03
2880.0	7.03E-03
2890.0	7.05E-03
2900.0	7.07E-03
2910.0	7.03E-03
2920.0	7.00E-03
2930.0	6.96E-03
2940.0	6.92E-03
2950.0	6.89E-03
2960.0	6.85E-03
2970.0	6.81E-03
2980.0	6.78E-03
2990.0	6.74E-03
3000.0	6.65E-03
3010.0	6.56E-03
3020.0	6.47E-03
3030.0	6.38E-03
3040.0	6.29E-03
3050.0	6.19E-03
3060.0	6.10E-03
3070.0	6.01E-03
3080.0	5.92E-03
3090.0	5.83E-03
3100.0	5.79E-03
3110.0	5.75E-03
3120.0	5.71E-03
3130.0	5.68E-03
3140.0	5.64E-03
3150.0	5.60E-03
3160.0	5.56E-03
3170.0	5.51E-03
3180.0	5.45E-03
3190.0	5.40E-03
3200.0	5.34E-03
3210.0	5.29E-03
3220.0	5.27E-03
3230.0	5.24E-03
3240.0	5.22E-03
3250.0	5.20E-03
3260.0	5.18E-03
3270.0	5.15E-03
3280.0	5.13E-03
3290.0	5.11E-03
3300.0	5.09E-03
3310.0	5.06E-03
3320.0	5.04E-03
3330.0	5.04E-03
3340.0	5.04E-03
3350.0	5.04E-03
3360.0	5.04E-03
3370.0	5.04E-03
3380.0	5.04E-03
3390.0	5.04E-03
3400.0	5.02E-03
3410.0	4.99E-03
3420.0	4.97E-03
3430.0	4.95E-03
3440.0	4.93E-03
3450.0	4.90E-03
3460.0	4.88E-03
3470.0	4.86E-03
3480.0	4.83E-03
3490.0	4.81E-03
3500.0	4.81E-03
3510.0	4.81E-03
3520.0	4.81E-03
3530.0	4.81E-03
3540.0	4.81E-03
3550.0	4.81E-03
3560.0	4.81E-03
3570.0	4.81E-03
3580.0	4.81E-03
3590.0	4.81E-03
3600.0	4.81E-03
3610.0	4.81E-03
3620.0	4.81E-03
3630.0	4.81E-03
3640.0	4.81E-03
3650.0	4.81E-03
3660.0	4.81E-03
3670.0	4.81E-03
3680.0	4.81E-03
3690.0	4.81E-03
3700.0	4.81E-03
3710.0	4.81E-03
3720.0	4.81E-03
3730.0	4.81E-03
3740.0	4.81E-03
3750.0	4.81E-03
3760.0	4.81E-03
3770.0	4.81E-03
3780.0	4.81E-03
3790.0	4.81E-03
3800.0	4.81E-03
3810.0	4.81E-03
3820.0	4.81E-03
3830.0	4.81E-03
3840.0	4.81E-03
3850.0	4.81E-03
3860.0	4.81E-03
3870.0	4.81E-03
3880.0	4.81E-03
3890.0	4.81E-03
3900.0	4.81E-03
3910.0	4.81E-03
3920.0	4.81E-03
3930.0	4.81E-03
3940.0	4.81E-03
3950.0	4.81E-03
3960.0	4.81E-03
3970.0	4.81E-03
3980.0	4.81E-03
3990.0	4.81E-03
4000.0	4.81E-03
