# ATLAS-CONF-2016-082, Fig. 12c
# expected 95% exclusion limits on sigBR(gg->H->ZZ[->nunuqq])
# mH[GeV] | sig*BR_95% [pb]
500.0	3.13E+00
510.0	2.44E+00
520.0	1.76E+00
530.0	1.37E+00
540.0	1.07E+00
550.0	8.72E-01
560.0	7.25E-01
570.0	5.67E-01
580.0	4.39E-01
590.0	4.02E-01
600.0	3.65E-01
610.0	3.31E-01
620.0	2.97E-01
630.0	2.78E-01
640.0	2.58E-01
650.0	2.38E-01
660.0	2.26E-01
670.0	2.15E-01
680.0	2.04E-01
690.0	1.92E-01
700.0	1.80E-01
710.0	1.66E-01
720.0	1.52E-01
730.0	1.45E-01
740.0	1.38E-01
750.0	1.31E-01
760.0	1.24E-01
770.0	1.18E-01
780.0	1.13E-01
790.0	1.07E-01
800.0	1.02E-01
810.0	9.62E-02
820.0	9.15E-02
830.0	8.68E-02
840.0	8.21E-02
850.0	7.85E-02
860.0	7.50E-02
870.0	7.15E-02
880.0	6.79E-02
890.0	6.48E-02
900.0	6.16E-02
910.0	5.85E-02
920.0	5.56E-02
930.0	5.27E-02
940.0	5.08E-02
950.0	4.90E-02
960.0	4.71E-02
970.0	4.57E-02
980.0	4.43E-02
990.0	4.28E-02
1000.0	4.14E-02
1010.0	4.00E-02
1020.0	3.87E-02
1030.0	3.73E-02
1040.0	3.66E-02
1050.0	3.60E-02
1060.0	3.53E-02
1070.0	3.46E-02
1080.0	3.36E-02
1090.0	3.26E-02
1100.0	3.17E-02
1110.0	3.10E-02
1120.0	3.04E-02
1130.0	2.97E-02
1140.0	2.91E-02
1150.0	2.86E-02
1160.0	2.80E-02
1170.0	2.74E-02
1180.0	2.69E-02
1190.0	2.63E-02
1200.0	2.58E-02
1210.0	2.54E-02
1220.0	2.49E-02
1230.0	2.45E-02
1240.0	2.41E-02
1250.0	2.36E-02
1260.0	2.31E-02
1270.0	2.25E-02
1280.0	2.20E-02
1290.0	2.16E-02
1300.0	2.13E-02
1310.0	2.09E-02
1320.0	2.05E-02
1330.0	2.01E-02
1340.0	1.97E-02
1350.0	1.93E-02
1360.0	1.89E-02
1370.0	1.86E-02
1380.0	1.83E-02
1390.0	1.79E-02
1400.0	1.77E-02
1410.0	1.74E-02
1420.0	1.71E-02
1430.0	1.69E-02
1440.0	1.66E-02
1450.0	1.64E-02
1460.0	1.62E-02
1470.0	1.59E-02
1480.0	1.56E-02
1490.0	1.53E-02
1500.0	1.51E-02
1510.0	1.48E-02
1520.0	1.46E-02
1530.0	1.44E-02
1540.0	1.42E-02
1550.0	1.39E-02
1560.0	1.37E-02
1570.0	1.35E-02
1580.0	1.33E-02
1590.0	1.30E-02
1600.0	1.27E-02
1610.0	1.24E-02
1620.0	1.21E-02
1630.0	1.18E-02
1640.0	1.16E-02
1650.0	1.13E-02
1660.0	1.11E-02
1670.0	1.09E-02
1680.0	1.07E-02
1690.0	1.05E-02
1700.0	1.02E-02
1710.0	9.89E-03
1720.0	9.60E-03
1730.0	9.40E-03
1740.0	9.19E-03
1750.0	8.99E-03
1760.0	8.79E-03
1770.0	8.59E-03
1780.0	8.39E-03
1790.0	8.20E-03
1800.0	8.08E-03
1810.0	7.97E-03
1820.0	7.85E-03
1830.0	7.74E-03
1840.0	7.60E-03
1850.0	7.46E-03
1860.0	7.32E-03
1870.0	7.23E-03
1880.0	7.14E-03
1890.0	7.05E-03
1900.0	6.96E-03
1910.0	6.86E-03
1920.0	6.76E-03
1930.0	6.66E-03
1940.0	6.56E-03
1950.0	6.49E-03
1960.0	6.42E-03
1970.0	6.35E-03
1980.0	6.28E-03
1990.0	6.17E-03
2000.0	6.07E-03
2010.0	5.96E-03
2020.0	5.88E-03
2030.0	5.81E-03
2040.0	5.73E-03
2050.0	5.65E-03
2060.0	5.56E-03
2070.0	5.47E-03
2080.0	5.39E-03
2090.0	5.30E-03
2100.0	5.24E-03
2110.0	5.17E-03
2120.0	5.11E-03
2130.0	5.03E-03
2140.0	4.95E-03
2150.0	4.88E-03
2160.0	4.80E-03
2170.0	4.74E-03
2180.0	4.69E-03
2190.0	4.63E-03
2200.0	4.58E-03
2210.0	4.54E-03
2220.0	4.49E-03
2230.0	4.46E-03
2240.0	4.43E-03
2250.0	4.40E-03
2260.0	4.37E-03
2270.0	4.34E-03
2280.0	4.32E-03
2290.0	4.30E-03
2300.0	4.28E-03
2310.0	4.26E-03
2320.0	4.24E-03
2330.0	4.23E-03
2340.0	4.22E-03
2350.0	4.21E-03
2360.0	4.17E-03
2370.0	4.14E-03
2380.0	4.10E-03
2390.0	4.07E-03
2400.0	4.04E-03
2410.0	4.02E-03
2420.0	3.99E-03
2430.0	3.97E-03
2440.0	3.95E-03
2450.0	3.94E-03
2460.0	3.92E-03
2470.0	3.90E-03
2480.0	3.87E-03
2490.0	3.85E-03
2500.0	3.84E-03
2510.0	3.82E-03
2520.0	3.80E-03
2530.0	3.79E-03
2540.0	3.77E-03
2550.0	3.75E-03
2560.0	3.74E-03
2570.0	3.72E-03
2580.0	3.70E-03
2590.0	3.68E-03
2600.0	3.67E-03
2610.0	3.65E-03
2620.0	3.63E-03
2630.0	3.61E-03
2640.0	3.59E-03
2650.0	3.57E-03
2660.0	3.55E-03
2670.0	3.53E-03
2680.0	3.51E-03
2690.0	3.49E-03
2700.0	3.47E-03
2710.0	3.46E-03
2720.0	3.44E-03
2730.0	3.42E-03
2740.0	3.40E-03
2750.0	3.38E-03
2760.0	3.37E-03
2770.0	3.35E-03
2780.0	3.32E-03
2790.0	3.30E-03
2800.0	3.28E-03
2810.0	3.26E-03
2820.0	3.25E-03
2830.0	3.23E-03
2840.0	3.22E-03
2850.0	3.20E-03
2860.0	3.18E-03
2870.0	3.15E-03
2880.0	3.12E-03
2890.0	3.10E-03
2900.0	3.08E-03
2910.0	3.05E-03
2920.0	3.03E-03
2930.0	3.01E-03
2940.0	2.99E-03
2950.0	2.97E-03
2960.0	2.95E-03
2970.0	2.94E-03
2980.0	2.93E-03
2990.0	2.93E-03
3000.0	2.93E-03
