# HIGLU 4.34
# ratio of the bottom-loop produced H contribution and the total ggH cross section at 13 TeV
# mH[GeV] | sigma_ggH_b/sigma_ggH
20.0	0.27565
30.0	0.19895
40.0	0.13116
50.0	0.08492
60.0	0.05592
70.0	0.03794
80.0	0.02656
90.0	0.01913
100.0	0.01415
110.0	0.01070
120.0	0.00825
130.0	0.00647
140.0	0.00514
150.0	0.00414
160.0	0.00338
170.0	0.00278
180.0	0.00230
190.0	0.00192
200.0	0.00162
210.0	0.00137
220.0	0.00116
230.0	0.00099
240.0	0.00085
250.0	0.00073
260.0	0.00063
270.0	0.00054
280.0	0.00047
290.0	0.00040
300.0	0.00035
310.0	0.00030
320.0	0.00025
330.0	0.00022
340.0	0.00018
350.0	0.00014
360.0	0.00012
370.0	0.00010
380.0	0.00009
390.0	0.00008
400.0	0.00007
410.0	0.00007
420.0	0.00006
430.0	0.00006
440.0	0.00005
450.0	0.00005
460.0	0.00005
470.0	0.00005
480.0	0.00004
490.0	0.00004
500.0	0.00004
510.0	0.00004
520.0	0.00004
530.0	0.00004
540.0	0.00004
550.0	0.00003
560.0	0.00003
570.0	0.00003
580.0	0.00003
590.0	0.00003
600.0	0.00003
610.0	0.00003
620.0	0.00003
630.0	0.00003
640.0	0.00003
650.0	0.00003
660.0	0.00003
670.0	0.00003
680.0	0.00003
690.0	0.00003
700.0	0.00003
710.0	0.00002
720.0	0.00002
730.0	0.00002
740.0	0.00002
750.0	0.00002
760.0	0.00002
770.0	0.00002
780.0	0.00002
790.0	0.00002
800.0	0.00002
810.0	0.00002
820.0	0.00002
830.0	0.00002
840.0	0.00002
850.0	0.00002
860.0	0.00002
870.0	0.00002
880.0	0.00002
890.0	0.00002
900.0	0.00002
910.0	0.00002
920.0	0.00002
930.0	0.00002
940.0	0.00002
950.0	0.00002
960.0	0.00002
970.0	0.00002
980.0	0.00002
990.0	0.00002
1000.0	0.00002
