# SM total H decay width in GeV
#70.0
#0.5
#19861
# Data
70.0	-2.7044329
70.5	-2.7018021329
71.0	-2.6989700043
71.5	-2.6963720236
72.0	-2.6935749724
72.5	-2.691008971
73.0	-2.6884580416
73.5	-2.6857113391
74.0	-2.6831912479
74.5	-2.6804775509
75.0	-2.6779875614
75.5	-2.6753060861
76.0	-2.6728454876
76.5	-2.6703987516
77.0	-2.6677635845
77.5	-2.6653452331
78.0	-2.6627404602
78.5	-2.6603498424
79.0	-2.6577747706
79.5	-2.6552148774
80.0	-2.6528652171
80.5	-2.6503340159
81.0	-2.6480105446
81.5	-2.6455073994
82.0	-2.643018599
82.5	-2.6407338354
83.0	-2.638272164
83.5	-2.6358243672
84.0	-2.6335770428
84.5	-2.6311554932
85.0	-2.6287473709
85.5	-2.6265362784
86.0	-2.6241535637
86.5	-2.6217838503
87.0	-2.6194269969
87.5	-2.6170828649
88.0	-2.6147513176
88.5	-2.6124322206
89.0	-2.6101254416
89.5	-2.6078308505
90.0	-2.6055483192
90.5	-2.6032777215
91.0	-2.6010189333
91.5	-2.5985994592
92.0	-2.5963648102
92.5	-2.593971055
93.0	-2.5917600347
93.5	-2.5893914574
94.0	-2.5872035713
94.5	-2.5848596478
95.0	-2.5825283068
95.5	-2.5802094139
96.0	-2.5779028369
96.5	-2.5754450234
97.0	-2.5731635462
97.5	-2.5707323336
98.0	-2.5683146553
98.5	-2.5659103616
99.0	-2.563519305
99.5	-2.5611413406
100.0	-2.5586191151
100.5	-2.5561114532
101.0	-2.5536181878
101.5	-2.5511391544
102.0	-2.5485205949
102.5	-2.5459177293
103.0	-2.5433303706
103.5	-2.5406075122
104.0	-2.5379016189
104.5	-2.5352124804
105.0	-2.5323918944
105.5	-2.529589509
106.0	-2.5268050908
106.5	-2.5238932832
107.0	-2.520856752
107.5	-2.5178413046
108.0	-2.5147045613
108.5	-2.5115903111
109.0	-2.5083582065
109.5	-2.5051499783
110.0	-2.5018273394
110.5	-2.4983930776
111.0	-2.4948500217
111.5	-2.4913356369
112.0	-2.4877159367
112.5	-2.4839937696
113.0	-2.4801720062
113.5	-2.4762535332
114.0	-2.4723700991
114.5	-2.4682656907
115.0	-2.4640732586
115.5	-2.4597957002
116.0	-2.4554359025
116.5	-2.450996738
117.0	-2.4463596638
117.5	-2.4416514912
118.0	-2.4368750397
118.5	-2.4319156687
119.0	-2.4267801729
119.5	-2.4215900297
120.0	-2.4163478915
120.5	-2.4108326095
121.0	-2.4052760536
121.5	-2.3995716743
122.0	-2.3937261468
122.5	-2.3877460939
123.0	-2.3815335078
123.5	-2.3753054687
124.0	-2.3688607497
124.5	-2.3622101706
125.0	-2.3554629422
125.5	-2.3485281478
126.0	-2.3414162846
126.5	-2.3342314493
127.0	-2.3267947182
127.5	-2.3192113885
128.0	-2.3114911923
128.5	-2.3035562369
129.0	-2.2954205503
129.5	-2.2871819998
130.0	-2.2786841194
130.5	-2.2700257143
131.0	-2.2612194415
131.5	-2.2521999091
132.0	-2.2429837653
132.5	-2.2335871529
133.0	-2.2239529288
133.5	-2.21417208
134.0	-2.2041894753
134.5	-2.1939557643
135.0	-2.183559832
135.5	-2.172953983
136.0	-2.1620960554
136.5	-2.1510722868
137.0	-2.1397818153
137.5	-2.1283103343
138.0	-2.1166225103
138.5	-2.1046879755
139.0	-2.0925348932
139.5	-2.0801377464
140.0	-2.0674755029
140.5	-2.0545806574
141.0	-2.0414361168
141.5	-2.0280750508
142.0	-2.0143939169
142.5	-2.0004779869
143.0	-1.9863203027
143.5	-1.9718355806
144.0	-1.9570309266
144.5	-1.9419537696
145.0	-1.9262816497
145.5	-1.9108016332
146.0	-1.8944898152
146.5	-1.8781120149
147.0	-1.8613815661
147.5	-1.844056982
148.0	-1.8265223565
148.5	-1.8082696066
149.0	-1.7896814802
149.5	-1.7705741521
150.0	-1.7510463845
150.5	-1.7307206102
151.0	-1.7099653886
151.5	-1.6884580416
152.0	-1.6661498549
152.5	-1.643018599
153.0	-1.6188849193
153.5	-1.593971055
154.0	-1.5678327306
154.5	-1.5404567417
155.0	-1.5115903111
155.5	-1.4812229311
156.0	-1.4489161348
156.5	-1.4144264814
157.0	-1.3773715739
157.5	-1.3374310331
158.0	-1.2939653393
158.5	-1.246493543
159.0	-1.1944991418
159.5	-1.1376300629
160.0	-1.076393357
160.5	-1.0122443833
161.0	-0.948076084
161.5	-0.8873949985
162.0	-0.8323873273
162.5	-0.7833064008
163.0	-0.7401673009
163.5	-0.7020207558
164.0	-0.6681679556
164.5	-0.637706062
165.0	-0.6103024518
165.5	-0.5851937205
166.0	-0.5620909645
166.5	-0.5407583351
167.0	-0.520856752
167.5	-0.5022412817
168.0	-0.4846561069
168.5	-0.4680104486
169.0	-0.4522252946
169.5	-0.437231457
170.0	-0.4228530152
170.5	-0.4090467648
171.0	-0.3957739469
171.5	-0.3829996589
172.0	-0.3705904009
172.5	-0.3585258895
173.0	-0.3468840068
173.5	-0.3354520378
174.0	-0.3243132913
174.5	-0.3134531009
175.0	-0.3027706572
175.5	-0.2922595457
176.0	-0.2818305946
176.5	-0.271565049
177.0	-0.2614572591
177.5	-0.2513469066
178.0	-0.2412394561
178.5	-0.2310660578
179.0	-0.2208365762
179.5	-0.2104897959
180.0	-0.1999018198
180.5	-0.1890286002
181.0	-0.1778319206
181.5	-0.1661519505
182.0	-0.1540342385
182.5	-0.1415831223
183.0	-0.128894299
183.5	-0.116281798
184.0	-0.1039149146
184.5	-0.0918904596
185.0	-0.0802422195
185.5	-0.0690509688
186.0	-0.0582898511
186.5	-0.0478859151
187.0	-0.0379149195
187.5	-0.0282140621
188.0	-0.0188612174
188.5	-0.0097499671
189.0	-0.0009129774
189.5	0.007747778
190.0	0.0161973535
190.5	0.0240749873
191.0	0.0322157033
191.5	0.0402066276
192.0	0.0476641946
192.5	0.0553783314
193.0	0.0625819842
193.5	0.0696680969
194.0	0.0770043268
194.5	0.0838608009
195.0	0.0906107078
195.5	0.0976043289
196.0	0.1041455506
196.5	0.1109262423
197.0	0.1172712957
197.5	0.123851641
198.0	0.1300119497
198.5	0.1364034481
199.0	0.1427022457
199.5	0.1489109931
200.0	0.1547282074
200.5	0.1607685619
201.0	0.1667260556
201.5	0.1726029312
202.0	0.1784013415
202.5	0.1844074854
203.0	0.1900514178
203.5	0.1956229436
204.0	0.2013971243
204.5	0.206825876
205.0	0.212453961
205.5	0.2177470733
206.0	0.2232362731
206.5	0.2286569581
207.0	0.2340108176
207.5	0.2392994791
208.0	0.2447717615
208.5	0.2499317566
209.0	0.2550311633
209.5	0.2603099458
210.0	0.2655253352
210.5	0.270445908
211.0	0.2755416884
211.5	0.2805783704
212.0	0.285557309
212.5	0.2907022433
213.0	0.2955671
213.5	0.3005954839
214.0	0.3053513694
214.5	0.3102683666
215.0	0.3151303172
215.5	0.31993844
216.0	0.3246939139
216.5	0.3296012484
217.0	0.3342526423
217.5	0.3390537357
218.0	0.3438023332
218.5	0.3484995703
219.0	0.3531465462
219.5	0.3577443252
220.0	0.362293938
220.5	0.3667963833
221.0	0.3714373174
221.5	0.3760291817
222.0	0.3805730031
222.5	0.3850697763
223.0	0.3895204658
223.5	0.3939260066
224.0	0.3982873054
224.5	0.4027770696
225.0	0.4072208929
225.5	0.411619706
226.0	0.4159744114
226.5	0.4202858849
227.0	0.4245549766
227.5	0.42894429
228.0	0.4331295176
228.5	0.4374334438
229.0	0.4416951356
229.5	0.445915414
230.0	0.4502491083
230.5	0.4543874671
231.0	0.458637849
231.5	0.4628470358
232.0	0.4668676204
232.5	0.4711449652
233.0	0.4752352226
233.5	0.4792873165
234.0	0.4834446481
234.5	0.4874212114
235.0	0.4915017662
235.5	0.4955443375
236.0	0.4996870826
236.5	0.5036545192
237.0	0.5077209767
237.5	0.5116160206
238.0	0.5156089492
238.5	0.5195655009
239.0	0.5234863323
239.5	0.527501011
240.0	0.5313511646
240.5	0.53529412
241.0	0.5392015993
241.5	0.543074235
242.0	0.5469126432
242.5	0.5508396051
243.0	0.5546102852
243.5	0.5584685625
244.0	0.5622928645
244.5	0.5660837842
245.0	0.5699588181
245.5	0.5736836931
246.0	0.5774917998
246.5	0.5812668053
247.0	0.5850092799
247.5	0.5887197796
248.0	0.5923988461
248.5	0.5961570809
249.0	0.5998830721
249.5	0.6035773682
250.0	0.6072405038
250.5	0.6108730004
251.0	0.614580867
251.5	0.6181527334
252.0	0.621799224
252.5	0.6254153522
253.0	0.6291036502
253.5	0.6326597133
254.0	0.6362872521
254.5	0.6398847419
255.0	0.6434526765
255.5	0.6469915375
256.0	0.6505017949
256.5	0.6540802353
257.0	0.6575338876
257.5	0.6610550849
258.0	0.6646419756
258.5	0.6681062379
259.0	0.6715430853
259.5	0.675044736
260.0	0.678518379
260.5	0.681964459
261.0	0.6853834098
261.5	0.6888645681
262.0	0.6922298358
262.5	0.6956567599
263.0	0.6990568545
263.5	0.7025166974
264.0	0.7058637123
264.5	0.709269961
265.0	0.7125655279
265.5	0.7160033436
266.0	0.719331287
266.5	0.7226339225
267.0	0.7259932589
267.5	0.7293268096
268.0	0.7326349675
268.5	0.7359181165
269.0	0.7391766319
269.5	0.7424894646
270.0	0.7457772179
270.5	0.7490402687
271.0	0.7522789855
271.5	0.7554937284
272.0	0.7587605439
272.5	0.7620029694
273.0	0.7652213663
273.5	0.7684160882
274.0	0.7715874809
274.5	0.7748088303
275.0	0.7780064614
275.5	0.7811807209
276.0	0.784331948
276.5	0.7874604745
277.0	0.7906369619
277.5	0.7937903847
278.0	0.7969210753
278.5	0.8000293592
279.0	0.8031155549
279.5	0.8062478272
280.0	0.8093576702
280.5	0.8124454029
281.0	0.8155113374
281.5	0.8186217264
282.0	0.8217099973
282.5	0.8247764625
283.0	0.8278214277
283.5	0.8308451923
284.0	0.8339117151
284.5	0.8368935164
285.0	0.8399177757
285.5	0.8429211208
286.0	0.8459657615
286.5	0.8489277132
287.0	0.8519306786
287.5	0.8549130223
288.0	0.8579352647
288.5	0.8608767964
289.0	0.8638579619
289.5	0.8668188029
290.0	0.8697595948
290.5	0.8726806072
291.0	0.875639937
291.5	0.8785217955
292.0	0.8814417219
292.5	0.8843988256
293.0	0.8872796345
293.5	0.8901973862
294.0	0.893040112
294.5	0.8959747324
295.0	0.8988348381
295.5	0.9016762313
296.0	0.904553263
296.5	0.9074113608
297.0	0.9102507723
297.5	0.9130717403
298.0	0.9159272117
298.5	0.918764031
299.0	0.9215824404
299.5	0.9243826772
300.0	0.9272163306
300.5	0.9299805905
301.0	0.9327780701
301.5	0.9355576451
302.0	0.9383695975
302.5	0.941113727
303.0	0.9438900482
303.5	0.9466487339
304.0	0.9493900066
304.5	0.9521625742
305.0	0.9548693711
305.5	0.9576072871
306.0	0.9603280505
306.5	0.9630791606
307.0	0.9657659642
307.5	0.9684829486
308.0	0.9711830409
308.5	0.9738664498
309.0	0.9765792186
309.5	0.979229593
310.0	0.9819091701
310.5	0.9845723156
311.0	0.9872192299
311.5	0.9898945637
312.0	0.9925535178
312.5	0.9951962916
313.0	0.9978230807
313.5	1.0004340775
314.0	1.0030294706
314.5	1.0056094454
315.0	1.008174184
315.5	1.0107238654
316.0	1.0136796973
316.5	1.0161973535
317.0	1.0187004987
317.5	1.0211892991
318.0	1.0236639182
318.5	1.0265332645
319.0	1.0289777052
319.5	1.0314084643
320.0	1.0342272608
320.5	1.0366288954
321.0	1.039017322
321.5	1.041787319
322.0	1.0441476209
322.5	1.0468851908
323.0	1.0492180227
323.5	1.0515383905
324.0	1.0542299099
324.5	1.0569048513
325.0	1.0591846176
325.5	1.0618293073
326.0	1.064083436
326.5	1.0666985504
327.0	1.0689276117
327.5	1.0715138051
328.0	1.074084689
328.5	1.0762762554
329.0	1.0788191831
329.5	1.0813473078
330.0	1.0838608009
330.5	1.0860037056
331.0	1.0884904702
331.5	1.0909630766
332.0	1.0934216852
332.5	1.0958664535
333.0	1.097951071
333.5	1.1003705451
334.0	1.1027766149
334.5	1.105169428
335.0	1.1075491297
335.5	1.109915863
336.0	1.1122697684
336.5	1.1146109842
337.0	1.1169396466
337.5	1.1192558893
338.0	1.1215598442
338.5	1.1235249809
339.0	1.1258064581
339.5	1.1280760127
340.0	1.1303337685
340.5	1.1325798477
341.0	1.1348143703
341.5	1.1370374548
342.0	1.1392492176
342.5	1.1414497734
343.0	1.14332713
343.5	1.1451964061
344.0	1.147057671
344.5	1.1492191127
345.0	1.1510632534
345.5	1.1532049001
346.0	1.1553360375
346.5	1.1574567681
347.0	1.1598678471
347.5	1.1622656143
348.0	1.1646502159
348.5	1.1670217958
349.0	1.1696744341
349.5	1.1720188094
350.0	1.1749315935
350.5	1.1841233542
351.0	1.1875207208
351.5	1.1906117978
352.0	1.193958978
352.5	1.197004728
353.0	1.200303183
353.5	1.203576775
354.0	1.206825876
354.5	1.2100508499
355.0	1.2132520522
355.5	1.2164298309
356.0	1.2195845262
356.5	1.2227164711
357.0	1.2258259915
357.5	1.2291697025
358.0	1.2322335211
358.5	1.2355284469
359.0	1.2385478877
359.5	1.2417954313
360.0	1.2447717615
360.5	1.2479732664
361.0	1.2511513432
361.5	1.2543063323
362.0	1.2574385669
362.5	1.2605483726
363.0	1.2636360686
363.5	1.2667019669
364.0	1.2697463731
364.5	1.2727695866
365.0	1.2757719002
365.5	1.278753601
366.0	1.2819419334
366.5	1.2848817147
367.0	1.2880255354
367.5	1.2909245594
368.0	1.2938043599
368.5	1.2968844755
369.0	1.2999429
369.5	1.3027637085
370.0	1.3057811513
370.5	1.3087777737
371.0	1.3115419584
371.5	1.314499228
372.0	1.3174364965
372.5	1.3203540328
373.0	1.3232521002
373.5	1.3261309567
374.0	1.3289908554
374.5	1.3318320444
375.0	1.3346547669
375.5	1.3374592613
376.0	1.3404441148
376.5	1.3432115902
377.0	1.3459615418
377.5	1.3488887231
378.0	1.3516030724
378.5	1.3543005623
379.0	1.3571722577
379.5	1.3598354823
380.0	1.3626709297
380.5	1.3653007486
381.0	1.3681008517
381.5	1.3708830168
382.0	1.3734637216
382.5	1.3762118503
383.0	1.3789426986
383.5	1.3816564826
384.0	1.3841741388
384.5	1.3868555292
385.0	1.3895204658
385.5	1.3921691495
386.0	1.3948017772
386.5	1.3974185424
387.0	1.4000196351
387.5	1.4026052419
388.0	1.4053463602
388.5	1.4079005401
389.0	1.4104397862
389.5	1.412964272
390.0	1.4154741681
390.5	1.4181354984
391.0	1.4206157706
391.5	1.4230819583
392.0	1.4256972134
392.5	1.428134794
393.0	1.4307198879
393.5	1.4331295176
394.0	1.4356851379
394.5	1.4382258076
395.0	1.4405942618
395.5	1.4431064567
396.0	1.4456042033
396.5	1.4479328656
397.0	1.4504030862
397.5	1.4528593358
398.0	1.4553017717
398.5	1.4577305482
399.0	1.459995256
399.5	1.4623979979
400.0	1.4647875196
400.5	1.467163966
401.0	1.4695274792
401.5	1.4718781993
402.0	1.474361976
402.5	1.4766867429
403.0	1.4789991317
403.5	1.4812992733
404.0	1.483587297
404.5	1.4860051864
405.0	1.4882686155
405.5	1.4905203094
406.0	1.4929000111
406.5	1.4951278812
407.0	1.4974825374
407.5	1.4996870826
408.0	1.5020172148
408.5	1.5041989185
409.0	1.5065050324
409.5	1.5086643631
410.0	1.5109469487
410.5	1.5132176001
411.0	1.5153438931
411.5	1.5175917307
412.0	1.5198279938
412.5	1.5220528009
413.0	1.5242662688
413.5	1.5263392774
414.0	1.5285310606
414.5	1.530711838
415.0	1.5328817194
415.5	1.5350408133
416.0	1.5371892262
416.5	1.5393270635
417.0	1.5415792439
417.5	1.5436956323
418.0	1.5458017572
418.5	1.5478977176
419.0	1.5499836112
419.5	1.5521813388
420.0	1.5542468082
420.5	1.5563025008
421.0	1.5584685625
421.5	1.5605044152
422.0	1.5625307689
422.5	1.5646660643
423.0	1.5666731376
423.5	1.5687882123
424.0	1.5708930362
424.5	1.5728716022
425.0	1.5749567758
425.5	1.576916956
426.0	1.5789828427
426.5	1.5810389488
427.0	1.5830853663
427.5	1.5850092799
428.0	1.5870371177
428.5	1.5890555311
429.0	1.591064607
429.5	1.5930644317
430.0	1.5950550898
430.5	1.597036665
431.0	1.5990092398
431.5	1.6009728957
432.0	1.6029277129
432.5	1.6048737706
433.0	1.6068111469
433.5	1.6088468223
434.0	1.6107665948
434.5	1.6126779183
435.0	1.614580867
435.5	1.6165805301
436.0	1.6184664922
436.5	1.6204483847
437.0	1.6223176608
437.5	1.6241789257
438.0	1.6261349786
438.5	1.628082261
439.0	1.6299190355
439.5	1.6318494622
440.0	1.6336704061
440.5	1.6355842663
441.0	1.6374897295
441.5	1.6392872259
442.0	1.6411765466
442.5	1.6430576838
443.0	1.6449307079
443.5	1.6467956888
444.0	1.6486526951
444.5	1.6505017949
445.0	1.652246341
445.5	1.6541765419
446.0	1.6560023207
446.5	1.657820456
447.0	1.6596310116
447.5	1.6614340504
448.0	1.6632296345
448.5	1.6650178254
449.0	1.6667986837
449.5	1.6686654155
450.0	1.6704314094
450.5	1.6721902512
451.0	1.6740340004
451.5	1.6757783417
452.0	1.6776069527
452.5	1.6793370305
453.0	1.6811507499
453.5	1.6828667957
454.0	1.684665864
454.5	1.6863681035
455.0	1.6881527556
455.5	1.689930104
456.0	1.6916118742
456.5	1.693375151
457.0	1.6951312977
457.5	1.6968803717
458.0	1.6986224297
458.5	1.7003575278
459.0	1.7020857214
459.5	1.7037211599
460.0	1.7054360466
460.5	1.7072294193
461.0	1.7089305358
461.5	1.7106250151
462.0	1.7123129087
462.5	1.7139942677
463.0	1.7156691424
463.5	1.7173375827
464.0	1.7190825739
464.5	1.720737977
465.0	1.7223870942
465.5	1.724111954
466.0	1.725748333
466.5	1.7274599209
467.0	1.729083757
467.5	1.7307822757
468.0	1.7323937598
468.5	1.7340794073
469.0	1.7356787259
469.5	1.7373516958
470.0	1.7390182459
470.5	1.7406784252
471.0	1.7422536699
471.5	1.7439015505
472.0	1.745543202
472.5	1.7471786714
473.0	1.748808005
473.5	1.7504312487
474.0	1.7520484478
474.5	1.7536596473
475.0	1.7552648914
475.5	1.7568642241
476.0	1.7584576886
476.5	1.760045328
477.0	1.7616271846
477.5	1.763278211
478.0	1.7648483572
478.5	1.7664128471
479.0	1.7680458141
479.5	1.7695988484
480.0	1.7712199019
480.5	1.7727616471
481.0	1.7742979385
481.5	1.7759015789
482.0	1.7774993196
482.5	1.7790189719
483.0	1.7806053058
483.5	1.7821858665
484.0	1.7836892363
484.5	1.7852586334
485.0	1.7868223795
485.5	1.7883805153
486.0	1.7899330809
486.5	1.7914099157
487.0	1.7929517083
487.5	1.7944880467
488.0	1.7960189693
488.5	1.7975445144
489.0	1.7991336933
489.5	1.8006483554
490.0	1.8021577532
490.5	1.8036619232
491.0	1.8051609016
491.5	1.8067225031
492.0	1.8082109729
492.5	1.8096943587
493.0	1.8112397728
493.5	1.8127128668
494.0	1.8142475957
494.5	1.8157105398
495.0	1.8172347304
495.5	1.8186876634
496.0	1.8202014595
496.5	1.8217099973
497.0	1.8231480598
497.5	1.8246464147
498.0	1.8261396179
498.5	1.8276277048
499.0	1.8290463369
499.5	1.8305245141
500.0	1.8319976772
500.5	1.8334658602
501.0	1.8349290965
501.5	1.8363874193
502.0	1.8378408617
502.5	1.8393523289
503.0	1.8407958988
503.5	1.8422346863
504.0	1.843668723
504.5	1.8451600777
505.0	1.8465845029
505.5	1.8480042715
506.0	1.8494808372
506.5	1.8508911841
507.0	1.8523579837
507.5	1.8537590331
508.0	1.8552161947
508.5	1.8566080684
509.0	1.8580557181
509.5	1.8594985582
510.0	1.8608767964
510.5	1.86231031
511.0	1.8637391073
511.5	1.8651632195
512.0	1.8665826771
512.5	1.8679975103
513.0	1.8694077494
513.5	1.8708134239
514.0	1.8722145634
514.5	1.873611197
515.0	1.8750033536
515.5	1.8763910618
516.0	1.87777435
516.5	1.8791532462
517.0	1.8805849561
517.5	1.8819549713
518.0	1.8833206784
518.5	1.8847387378
519.0	1.8860957324
519.5	1.8875047742
520.0	1.888853167
520.5	1.8902533052
521.0	1.8916489439
521.5	1.8929845507
522.0	1.8943714539
522.5	1.8957539421
523.0	1.8970770032
523.5	1.8984509192
524.0	1.8998205024
524.5	1.9011857801
525.0	1.9025467793
525.5	1.9039035267
526.0	1.9052560487
526.5	1.9066043717
527.0	1.9079485216
527.5	1.9092885242
528.0	1.9106777547
528.5	1.9120093756
529.0	1.9133369259
529.5	1.914713287
530.0	1.9160326102
530.5	1.9173479376
531.0	1.9187116654
531.5	1.920018916
532.0	1.9213742954
532.5	1.9226735679
533.0	1.9240207005
533.5	1.9253636674
534.0	1.9266510771
534.5	1.9279859471
535.0	1.9293167268
535.5	1.930643441
536.0	1.9319661147
536.5	1.9332847723
537.0	1.9345994382
537.5	1.9359101364
538.0	1.9372168909
538.5	1.9385197252
539.0	1.9398186628
539.5	1.941113727
540.0	1.9424049409
540.5	1.9437417658
541.0	1.9450252012
541.5	1.946304855
542.0	1.9476297474
542.5	1.948901761
543.0	1.9502187666
543.5	1.9514832308
544.0	1.952792443
544.5	1.9540977205
545.0	1.9553509574
545.5	1.9566485792
546.0	1.9579423354
546.5	1.9592322491
547.0	1.9604707775
547.5	1.9617532142
548.0	1.9630318751
548.5	1.9643067823
549.0	1.9655779579
549.5	1.9668454237
550.0	1.9681559371
550.5	1.9694159124
551.0	1.9706722427
551.5	1.9719249492
552.0	1.9731740527
552.5	1.9744656357
553.0	1.9757074635
553.5	1.9769915453
554.0	1.9782261817
554.5	1.9795028488
555.0	1.9807303765
555.5	1.9819997141
556.0	1.9832653526
556.5	1.9844823064
557.0	1.9857407411
557.5	1.9869955397
558.0	1.9882467234
558.5	1.9894943128
559.0	1.9907383285
559.5	1.991978791
560.0	1.9932157205
560.5	1.994449137
561.0	1.9956790605
561.5	1.9969055107
562.0	1.9981285071
562.5	1.9993915617
563.0	2.0004340775
563.5	2.0017337128
564.0	2.0030294706
564.5	2.0043213738
565.0	2.0056094454
565.5	2.0068937079
566.0	2.007747778
566.5	2.0090257421
567.0	2.0102999566
567.5	2.0115704436
568.0	2.0128372247
568.5	2.0141003215
569.0	2.0153597554
569.5	2.0166155476
570.0	2.017867719
570.5	2.0187004987
571.0	2.0199466817
571.5	2.0211892991
572.0	2.0224283712
572.5	2.0236639182
573.0	2.0248959601
573.5	2.0261245167
574.0	2.0273496078
574.5	2.0285712527
575.0	2.0297894708
575.5	2.0310042814
576.0	2.0322157033
576.5	2.0334237555
577.0	2.0346284566
577.5	2.0358298253
578.0	2.0370278798
578.5	2.0382226384
579.0	2.0394141192
579.5	2.0406023401
580.0	2.041787319
580.5	2.0429690734
581.0	2.0441476209
581.5	2.0453229788
582.0	2.0464951643
582.5	2.0476641946
583.0	2.0488300865
583.5	2.0499928569
584.0	2.0511525224
584.5	2.0523090996
585.0	2.0534626049
585.5	2.0546130546
586.0	2.0557604647
586.5	2.0569048513
587.0	2.0580462304
587.5	2.0591846176
588.0	2.0603200287
588.5	2.0614524791
589.0	2.0625819842
589.5	2.0637085594
590.0	2.0648322197
590.5	2.0663259254
591.0	2.0674428428
591.5	2.0685568951
592.0	2.0696680969
592.5	2.0707764628
